ID,x,y,z,yaw,pitch,roll
1,-284.905,226.113,-12.6207,2.44702,0.0137913,0.0491332
2,-285.108,226.311,-12.6029,2.44816,0.0134437,0.0410092
3,-285.341,226.503,-12.6127,2.44853,0.0128448,0.0390221
4,-285.561,226.717,-12.616,2.44879,0.0121281,0.0349506
5,-285.767,226.913,-12.6238,2.44977,0.0111202,0.0322218
6,-285.984,227.109,-12.618,2.45052,0.0110696,0.0315068
7,-286.183,227.286,-12.6169,2.44971,0.0105189,0.0318999
8,-286.409,227.481,-12.6103,2.45018,0.00959797,0.0327575
9,-286.609,227.656,-12.6124,2.45079,0.00796928,0.0339945
10,-286.82,227.826,-12.609,2.45103,0.00736229,0.0337284
11,-287.017,228.007,-12.5883,2.45141,0.00334354,0.0331534
12,-287.221,228.172,-12.5809,2.45107,-0.00102536,0.0352222
13,-287.415,228.329,-12.6043,2.45094,-0.00326703,0.0377963
14,-287.607,228.491,-12.622,2.45016,-0.00286978,0.0389244
15,-287.797,228.664,-12.6339,2.45061,-0.00155834,0.0397851
16,-287.969,228.809,-12.6382,2.45098,-0.000246324,0.0398975
17,-288.152,228.971,-12.6449,2.45136,-6.63769E-05,0.0399706
18,-288.319,229.099,-12.6615,2.45166,0.00206328,0.0406531
19,-288.48,229.243,-12.67,2.45251,0.00481545,0.0405348
20,-288.667,229.398,-12.6732,2.45302,0.00661898,0.0381584
21,-288.811,229.53,-12.6559,2.4533,0.00660482,0.0358737
22,-288.982,229.678,-12.671,2.45421,0.00613456,0.0354671
23,-289.147,229.813,-12.6893,2.45399,0.00633018,0.0379851
24,-289.29,229.928,-12.7029,2.45392,0.0092857,0.038978
25,-289.45,230.061,-12.7145,2.45459,0.0123659,0.0419175
26,-289.597,230.191,-12.7046,2.45569,0.0136678,0.0437977
27,-289.734,230.311,-12.6865,2.4563,0.0145994,0.0448983
28,-289.885,230.431,-12.6787,2.45537,0.0142488,0.0446295
29,-290.025,230.551,-12.6706,2.45629,0.0124735,0.0445806
30,-290.146,230.663,-12.6779,2.45709,0.0104168,0.0447005
31,-290.28,230.771,-12.6707,2.45736,0.00927423,0.0437229
32,-290.422,230.913,-12.6511,2.45771,0.00668656,0.0413332
33,-290.539,231.028,-12.6625,2.45684,0.00298188,0.0420923
34,-290.685,231.142,-12.6604,2.45629,3.38355E-05,0.0420868
35,-290.817,231.27,-12.6126,2.45664,-0.0056615,0.0404292
36,-290.932,231.386,-12.6095,2.45564,-0.0129478,0.0401492
37,-291.079,231.498,-12.6718,2.45584,-0.0147754,0.0407432
38,-291.202,231.599,-12.7229,2.45621,-0.0100913,0.0413589
39,-291.323,231.68,-12.7656,2.45715,-0.00193187,0.0425826
40,-291.444,231.788,-12.7404,2.45769,0.00388369,0.0431638
41,-291.556,231.887,-12.7092,2.45735,0.00255559,0.0444782
42,-291.676,232,-12.7078,2.45652,5.18952E-05,0.0468784
43,-291.838,232.12,-12.7348,2.45524,-0.00109613,0.0523628
44,-291.962,232.228,-12.7487,2.45448,0.00114363,0.0568422
45,-292.061,232.313,-12.7418,2.45499,0.0032966,0.0559709
46,-292.184,232.424,-12.7441,2.45592,0.00628925,0.0519272
47,-292.279,232.52,-12.7354,2.45665,0.00728088,0.0471471
48,-292.414,232.63,-12.7316,2.45728,0.00581013,0.0464118
49,-292.526,232.742,-12.7388,2.45609,0.00413731,0.0478139
50,-292.628,232.829,-12.7508,2.45505,0.00437572,0.0488327
51,-292.754,232.926,-12.7572,2.45564,0.00573057,0.0505206
52,-292.874,233.037,-12.7536,2.45519,0.00597741,0.051157
53,-292.992,233.14,-12.7597,2.45447,0.0067849,0.0495901
54,-293.107,233.236,-12.782,2.45558,0.00947791,0.0491809
55,-293.239,233.354,-12.7613,2.45681,0.010916,0.0491797
56,-293.345,233.457,-12.7248,2.45635,0.00919606,0.0463598
57,-293.518,233.608,-12.7185,2.45517,0.000765898,0.0437228
58,-293.65,233.718,-12.7553,2.45536,-0.00218974,0.0427715
59,-293.767,233.814,-12.769,2.45684,-0.00164705,0.044511
60,-293.892,233.919,-12.7619,2.45803,-0.00219551,0.0472172
61,-294.027,234.038,-12.7508,2.45781,-0.00429246,0.0488231
62,-294.152,234.171,-12.7711,2.45624,-0.00601634,0.0500089
63,-294.277,234.276,-12.7792,2.4558,-0.00589755,0.0506862
64,-294.425,234.394,-12.7702,2.45624,-0.00527567,0.0520312
65,-294.543,234.52,-12.7843,2.45522,-0.00512443,0.0524216
66,-294.678,234.629,-12.7788,2.45472,-0.00372648,0.0505506
67,-294.818,234.756,-12.7854,2.4556,-0.00374581,0.0483178
68,-294.941,234.864,-12.7894,2.45612,-0.00393724,0.048204
69,-295.074,234.983,-12.7932,2.45552,-0.00398597,0.0480191
70,-295.195,235.086,-12.7983,2.45539,-0.00413809,0.0487037
71,-295.336,235.208,-12.8051,2.45547,-0.00429315,0.0495545
72,-295.476,235.337,-12.7977,2.45478,-0.00472567,0.0496498
73,-295.603,235.445,-12.7985,2.45391,-0.00492846,0.0495813
74,-295.733,235.547,-12.7952,2.4539,-0.00499717,0.0497462
75,-295.866,235.66,-12.7947,2.45476,-0.00517348,0.0497133
76,-296,235.773,-12.803,2.45445,-0.00511262,0.0497124
77,-296.151,235.891,-12.7956,2.45398,-0.00450578,0.0484259
78,-296.276,236.002,-12.7805,2.45356,-0.00471188,0.0462727
79,-296.421,236.136,-12.8004,2.45476,-0.00517829,0.0452062
80,-296.572,236.265,-12.8119,2.45482,-0.00384481,0.0451819
81,-296.717,236.394,-12.8121,2.45454,-0.00185088,0.0452429
82,-296.855,236.503,-12.8069,2.45508,-0.000990786,0.046378
83,-296.979,236.62,-12.7981,2.45495,-0.00111,0.0469997
84,-297.134,236.745,-12.7944,2.45456,-0.00132456,0.0470486
85,-297.266,236.856,-12.7997,2.45447,-0.00102923,0.0466757
86,-297.417,236.997,-12.8076,2.45406,0.000128885,0.0463222
87,-297.552,237.116,-12.8056,2.45374,0.000664664,0.0459693
88,-297.69,237.241,-12.797,2.4542,-0.000752049,0.0454821
89,-297.826,237.359,-12.7966,2.45518,-0.00103232,0.0455232
90,-297.981,237.496,-12.794,2.45529,-0.0011568,0.0454368
91,-298.137,237.635,-12.7968,2.45513,-0.00168765,0.0443812
92,-298.267,237.748,-12.7992,2.45583,-0.00206573,0.0439337
93,-298.417,237.886,-12.8085,2.45645,-0.00247054,0.0435231
94,-298.565,238.008,-12.8084,2.45642,-0.00270119,0.0426025
95,-298.707,238.137,-12.8129,2.45589,-0.00370103,0.0415925
96,-298.863,238.269,-12.7951,2.45635,-0.00501365,0.0401389
97,-299.014,238.396,-12.7958,2.45697,-0.00681573,0.0390105
98,-299.164,238.531,-12.7995,2.45766,-0.00847558,0.0380839
99,-299.303,238.657,-12.8105,2.45874,-0.00891513,0.0371726
100,-299.448,238.776,-12.8257,2.45868,-0.00743556,0.036164
101,-299.595,238.904,-12.8308,2.4592,-0.0062373,0.0356353
102,-299.743,239.039,-12.83,2.45954,-0.00564617,0.0371986
103,-299.902,239.164,-12.834,2.45985,-0.00491837,0.0394998
104,-300.052,239.277,-12.8179,2.4604,-0.00477427,0.0383461
105,-300.203,239.411,-12.824,2.46096,-0.00558374,0.0362841
106,-300.361,239.554,-12.8307,2.46161,-0.00474337,0.0344039
107,-300.516,239.69,-12.8316,2.46218,-0.00385168,0.0329815
108,-300.66,239.804,-12.8395,2.46292,-0.00344583,0.0323346
109,-300.82,239.936,-12.8382,2.46401,-0.00310725,0.0309831
110,-300.979,240.067,-12.8456,2.4643,-0.00343847,0.0305924
111,-301.127,240.205,-12.8384,2.46449,-0.00398444,0.0298118
112,-301.277,240.335,-12.8452,2.46432,-0.00384038,0.029256
113,-301.438,240.474,-12.8494,2.46446,-0.00277764,0.0271077
114,-301.604,240.592,-12.8413,2.4667,-0.00217631,0.0239372
115,-301.763,240.728,-12.8425,2.46937,-0.00480711,0.0229126
116,-301.906,240.851,-12.8328,2.47123,-0.00595456,0.0204991
117,-302.097,240.974,-12.8441,2.47399,-0.00602391,0.0183057
118,-302.243,241.103,-12.8417,2.47568,-0.00592768,0.0192296
119,-302.424,241.233,-12.8414,2.47865,-0.00521603,0.017978
120,-302.592,241.36,-12.8526,2.48135,-0.00470068,0.0176911
121,-302.758,241.5,-12.8485,2.48292,-0.00456375,0.0175697
122,-302.92,241.633,-12.8407,2.48516,-0.00448167,0.0171138
123,-303.085,241.751,-12.8459,2.48776,-0.00463001,0.0168037
124,-303.269,241.886,-12.8406,2.49106,-0.0046974,0.0156817
125,-303.428,242.012,-12.8371,2.49401,-0.00458233,0.0147911
126,-303.589,242.122,-12.839,2.49692,-0.00502157,0.0141643
127,-303.769,242.249,-12.8513,2.50014,-0.00472797,0.013138
128,-303.948,242.373,-12.8546,2.504,-0.00396537,0.0123943
129,-304.126,242.497,-12.8638,2.50948,-0.00351685,0.0113755
130,-304.287,242.608,-12.8589,2.51397,-0.00345445,0.0110569
131,-304.479,242.73,-12.8666,2.51902,-0.0038701,0.0121319
132,-304.665,242.854,-12.8613,2.52503,-0.00598676,0.0152648
133,-304.867,242.968,-12.8568,2.53265,-0.00833595,0.0170304
134,-305.047,243.071,-12.8435,2.54186,-0.00972054,0.0155191
135,-305.236,243.17,-12.8405,2.55171,-0.0106293,0.0121275
136,-305.426,243.269,-12.849,2.5629,-0.0111195,0.00802871
137,-305.626,243.368,-12.8539,2.5746,-0.0110482,0.00728087
138,-305.801,243.438,-12.8543,2.58461,-0.011085,0.0074235
139,-306.014,243.53,-12.856,2.59771,-0.0111826,0.00745244
140,-306.219,243.6,-12.8516,2.61034,-0.0115429,0.00751285
141,-306.423,243.675,-12.8578,2.62294,-0.0122005,0.00733354
142,-306.619,243.74,-12.8466,2.63592,-0.012728,0.00658327
143,-306.822,243.813,-12.8436,2.64993,-0.0125083,0.00411219
144,-307.028,243.897,-12.8505,2.66582,-0.0133021,0.00200825
145,-307.228,243.954,-12.853,2.68046,-0.0134933,0.0038393
146,-307.433,244.01,-12.8496,2.69519,-0.0130466,0.00474102
147,-307.643,244.058,-12.8553,2.71096,-0.0130636,0.0060899
148,-307.858,244.109,-12.8531,2.72824,-0.0129218,0.00729589
149,-308.081,244.156,-12.8456,2.74666,-0.0120206,0.00746672
150,-308.304,244.193,-12.8464,2.76513,-0.0112713,0.0058475
151,-308.533,244.224,-12.8489,2.78614,-0.0107186,0.00501575
152,-308.757,244.243,-12.8534,2.80709,-0.0105628,0.00346157
153,-308.985,244.257,-12.8627,2.82865,-0.0104854,0.00215371
154,-309.213,244.266,-12.8692,2.85123,-0.0105414,0.00254091
155,-309.454,244.266,-12.8747,2.87477,-0.0099417,0.00345989
156,-309.672,244.254,-12.8653,2.89714,-0.00858992,0.00246648
157,-309.908,244.248,-12.8615,2.92144,-0.00713148,0.00071293
158,-310.129,244.222,-12.8585,2.94511,-0.00632881,-0.0011156
159,-310.369,244.196,-12.8594,2.97009,-0.00586721,-0.00160436
160,-310.598,244.151,-12.8573,2.99541,-0.00593151,-0.00160492
161,-310.82,244.104,-12.8701,3.02092,-0.00538197,-0.000336438
162,-311.049,244.061,-12.8681,3.04509,-0.00537088,0.000436621
163,-311.286,244.012,-12.8714,3.07156,-0.00513326,0.00172684
164,-311.517,243.951,-12.8719,3.09685,-0.00497485,0.00286555
165,-311.767,243.878,-12.8666,3.12317,-0.00601586,0.003329
166,-311.996,243.799,-12.8677,-3.13334,-0.00526277,0.00382621
167,-312.238,243.719,-12.868,-3.10666,-0.00457228,0.00429558
168,-312.464,243.622,-12.8733,-3.07926,-0.00349765,0.00445171
169,-312.69,243.517,-12.871,-3.05275,-0.00386612,0.00493506
170,-312.931,243.414,-12.8819,-3.02509,-0.00404868,0.00561015
171,-313.164,243.308,-12.8824,-2.99689,-0.0039943,0.00646538
172,-313.407,243.188,-12.9,-2.96802,-0.00310813,0.00764876
173,-313.638,243.058,-12.8971,-2.9401,-0.00113966,0.00913678
174,-313.882,242.919,-12.9051,-2.91137,0.000853957,0.0097008
175,-314.109,242.8,-12.9114,-2.88258,0.00127954,0.0103904
176,-314.346,242.632,-12.9111,-2.85325,-0.00113382,0.0122523
177,-314.578,242.469,-12.9107,-2.82511,-0.00263977,0.0123921
178,-314.806,242.304,-12.9145,-2.79727,-0.00405712,0.0101104
179,-315.06,242.116,-12.9242,-2.76731,-0.00624026,0.00987951
180,-315.301,241.922,-12.9309,-2.73877,-0.00535107,0.0129565
181,-315.56,241.733,-12.9323,-2.71,-0.00499183,0.0154281
182,-315.813,241.536,-12.9375,-2.6821,-0.00349171,0.0165343
183,-316.056,241.332,-12.9316,-2.65596,-0.00237728,0.0160273
184,-316.299,241.108,-12.9198,-2.62897,-0.00107214,0.0145247
185,-316.543,240.871,-12.9217,-2.60286,0.000594069,0.012668
186,-316.79,240.64,-12.9087,-2.57912,0.00161691,0.00951527
187,-317.029,240.429,-12.9176,-2.55845,0.00383004,0.00453176
188,-317.268,240.205,-12.9474,-2.53863,0.00581623,0.00133622
189,-317.508,239.984,-12.963,-2.51983,0.00614729,0.00212462
190,-317.746,239.739,-12.9539,-2.50226,0.00442055,0.00582544
191,-317.98,239.504,-12.9617,-2.48659,0.00231172,0.00908154
192,-318.211,239.278,-12.9534,-2.46938,-0.000155077,0.0103829
193,-318.436,239.025,-12.9587,-2.45205,-0.000446377,0.0122819
194,-318.657,238.782,-12.9575,-2.43532,0.000222956,0.0130363
195,-318.89,238.523,-12.9621,-2.41802,0.000114115,0.0116815
196,-319.106,238.276,-12.9771,-2.40156,-0.000477658,0.0107707
197,-319.332,238.025,-12.9839,-2.38654,-0.00269173,0.00995852
198,-319.558,237.755,-13.0042,-2.3717,-0.00481188,0.00958722
199,-319.796,237.485,-13.0201,-2.35767,-0.00864918,0.0103607
200,-320.039,237.201,-13.0203,-2.34496,-0.0128819,0.0114516
201,-320.271,236.897,-12.9972,-2.33398,-0.0187307,0.0110842
